NO_OF_FRAMES	300
NO_OF_CAMERAS	2
NO_OF_MARKERS	4
FREQUENCY	100
NO_OF_ANALOG	0
ANALOG_FREQUENCY	0
DESCRIPTION	--
TIME_STAMP	2019-11-14, 18:00:17.483	13497.12142610
DATA_INCLUDED	3D
MARKER_NAMES	Cntr1	Rad1	Cntr2	Rad2
170.076	-125.503	207.693	168.252	-154.207	207.835	124.213	129.828	207.710	120.803	157.877	207.476
170.020	-125.610	207.633	168.310	-154.304	207.805	124.219	129.843	207.668	120.811	157.885	207.461
169.983	-125.746	207.627	168.369	-154.434	207.804	124.239	129.829	207.694	120.803	157.871	207.422
169.870	-125.910	207.615	168.343	-154.590	207.811	124.211	129.850	207.683	120.776	157.891	207.466
169.682	-126.107	207.678	168.303	-154.810	207.794	124.190	129.894	207.629	120.774	157.921	207.437
169.562	-126.320	207.627	168.282	-155.040	207.748	124.179	129.923	207.616	120.754	157.950	207.412
169.393	-126.570	207.663	168.164	-155.308	207.781	124.205	129.932	207.626	120.753	157.965	207.411
169.218	-126.873	207.633	168.073	-155.619	207.784	124.188	129.930	207.655	120.747	157.956	207.481
168.977	-127.236	207.637	167.944	-155.940	207.819	124.196	129.931	207.613	120.763	157.950	207.424
168.703	-127.626	207.673	167.731	-156.333	207.809	124.190	129.908	207.683	120.773	157.957	207.491
168.431	-128.056	207.738	167.501	-156.766	207.885	124.202	129.879	207.724	120.802	157.929	207.503
168.115	-128.504	207.739	167.274	-157.237	207.852	124.222	129.836	207.723	120.804	157.892	207.504
167.757	-128.964	207.730	167.006	-157.700	207.890	124.248	129.837	207.734	120.795	157.884	207.491
167.429	-129.465	207.733	166.728	-158.189	207.862	124.214	129.806	207.711	120.814	157.848	207.463
167.054	-129.952	207.700	166.483	-158.678	207.859	124.241	129.793	207.668	120.798	157.833	207.465
166.753	-130.468	207.742	166.215	-159.186	207.845	124.239	129.815	207.640	120.798	157.826	207.465
166.461	-131.008	207.717	165.998	-159.746	207.867	124.220	129.843	207.668	120.794	157.862	207.437
166.113	-131.652	207.658	165.685	-160.377	207.889	124.192	129.849	207.630	120.784	157.877	207.424
165.729	-132.399	207.730	165.333	-161.124	207.849	124.184	129.864	207.672	120.741	157.889	207.470
165.316	-133.142	207.736	164.966	-161.885	207.921	124.174	129.878	207.659	120.758	157.898	207.440
164.932	-133.892	207.726	164.629	-162.648	207.920	124.172	129.900	207.631	120.747	157.942	207.454
164.573	-134.615	207.753	164.322	-163.372	207.917	124.198	129.908	207.668	120.754	157.956	207.466
164.205	-135.368	207.715	164.021	-164.104	207.900	124.217	129.909	207.721	120.801	157.943	207.502
163.909	-136.118	207.779	163.737	-164.842	207.948	124.226	129.910	207.706	120.861	157.939	207.454
163.639	-136.803	207.757	163.437	-165.579	207.904	124.244	129.881	207.678	120.819	157.922	207.473
163.347	-137.500	207.724	163.180	-166.271	207.895	124.227	129.873	207.680	120.793	157.914	207.463
163.125	-138.174	207.766	162.964	-166.922	207.895	124.220	129.851	207.695	120.812	157.878	207.462
162.967	-138.790	207.772	162.739	-167.564	207.909	124.195	129.835	207.685	120.787	157.862	207.452
162.775	-139.430	207.728	162.556	-168.203	207.878	124.195	129.805	207.659	120.761	157.839	207.442
162.622	-140.115	207.709	162.380	-168.875	207.874	124.177	129.797	207.634	120.743	157.845	207.444
162.412	-140.854	207.710	162.139	-169.602	207.866	124.221	129.792	207.615	120.768	157.847	207.400
162.230	-141.594	207.750	161.946	-170.318	207.920	124.195	129.820	207.659	120.770	157.846	207.454
161.997	-142.267	207.752	161.699	-171.004	207.951	124.194	129.857	207.712	120.777	157.891	207.466
161.733	-142.931	207.783	161.451	-171.672	207.955	124.209	129.894	207.709	120.750	157.904	207.482
161.480	-143.576	207.786	161.208	-172.326	207.945	124.234	129.910	207.692	120.783	157.942	207.504
161.282	-144.221	207.866	161.000	-172.956	207.984	124.243	129.926	207.731	120.842	157.975	207.482
161.078	-144.885	207.878	160.797	-173.650	207.943	124.242	129.925	207.704	120.816	157.967	207.472
160.916	-145.592	207.765	160.592	-174.336	207.957	124.233	129.918	207.664	120.797	157.952	207.392
160.772	-146.311	207.761	160.462	-175.020	207.896	124.208	129.865	207.627	120.818	157.894	207.392
160.663	-147.015	207.752	160.308	-175.705	207.933	124.220	129.829	207.641	120.786	157.878	207.424
160.592	-147.620	207.751	160.164	-176.368	207.927	124.176	129.834	207.660	120.761	157.861	207.469
160.474	-148.242	207.808	160.036	-176.972	207.916	124.176	129.819	207.633	120.733	157.874	207.458
160.378	-148.860	207.823	159.922	-177.569	207.987	124.169	129.819	207.675	120.734	157.867	207.458
160.276	-149.474	207.878	159.776	-178.212	208.008	124.205	129.820	207.698	120.753	157.853	207.484
160.168	-150.072	207.826	159.660	-178.767	207.968	124.195	129.835	207.685	120.812	157.878	207.462
160.076	-150.605	207.769	159.545	-179.326	207.955	124.220	129.843	207.695	120.811	157.886	207.434
159.994	-151.160	207.753	159.411	-179.866	207.972	124.210	129.857	207.682	120.794	157.898	207.490
159.944	-151.702	207.762	159.303	-180.436	207.973	124.246	129.859	207.678	120.804	157.884	207.504
159.914	-152.225	207.794	159.239	-180.958	207.981	124.228	129.881	207.707	120.810	157.915	207.461
159.850	-152.725	207.801	159.154	-181.474	207.938	124.199	129.909	207.669	120.765	157.942	207.479
159.810	-153.266	207.767	159.075	-182.017	207.920	124.206	129.917	207.654	120.772	157.950	207.464
159.773	-153.802	207.815	159.027	-182.562	207.956	124.208	129.895	207.654	120.800	157.937	207.448
159.715	-154.328	207.837	158.944	-183.111	207.941	124.226	129.881	207.652	120.809	157.915	207.434
159.615	-154.855	207.821	158.796	-183.638	207.957	124.192	129.857	207.657	120.756	157.912	207.440
159.498	-155.394	207.836	158.719	-184.177	207.955	124.176	129.848	207.687	120.775	157.899	207.438
159.409	-155.973	207.863	158.584	-184.708	208.027	124.212	129.820	207.683	120.770	157.861	207.481
159.300	-156.543	207.809	158.469	-185.274	208.014	124.197	129.798	207.686	120.764	157.838	207.524
159.200	-157.085	207.795	158.324	-185.808	208.019	124.221	129.814	207.642	120.771	157.846	207.482
159.113	-157.658	207.820	158.209	-186.390	207.952	124.213	129.813	207.684	120.804	157.856	207.423
159.001	-158.237	207.863	158.064	-186.961	207.959	124.230	129.821	207.681	120.813	157.871	207.462
158.865	-158.809	207.854	157.909	-187.516	207.991	124.248	129.844	207.733	120.840	157.871	207.500
158.680	-159.360	207.820	157.721	-188.056	207.985	124.236	129.881	207.665	120.810	157.915	207.461
158.458	-159.889	207.845	157.511	-188.617	207.997	124.208	129.902	207.681	120.765	157.927	207.479
158.289	-160.442	207.838	157.325	-189.169	207.964	124.191	129.909	207.684	120.747	157.948	207.481
158.159	-160.957	207.813	157.149	-189.651	207.985	124.175	129.886	207.686	120.757	157.935	207.467
157.943	-161.451	207.823	156.950	-190.160	207.939	124.164	129.885	207.646	120.739	157.934	207.442
157.754	-161.940	207.760	156.772	-190.638	207.999	124.191	129.871	207.629	120.773	157.914	207.410
157.553	-162.381	207.822	156.649	-191.096	208.013	124.227	129.844	207.626	120.768	157.883	207.453
157.427	-162.757	207.888	156.522	-191.473	208.024	124.238	129.852	207.693	120.831	157.871	207.487
157.334	-163.077	207.920	156.360	-191.789	208.064	124.264	129.853	207.704	120.812	157.892	207.489
157.262	-163.369	207.882	156.253	-192.098	208.031	124.236	129.851	207.638	120.786	157.891	207.505
157.190	-163.649	207.871	156.129	-192.343	208.079	124.223	129.828	207.750	120.832	157.871	207.515
157.088	-163.881	207.848	156.029	-192.603	208.029	124.223	129.814	207.724	120.815	157.841	207.490
156.962	-164.102	207.812	155.936	-192.813	207.963	124.212	129.828	207.683	120.804	157.863	207.450
156.821	-164.219	207.789	155.829	-192.923	207.964	124.219	129.843	207.641	120.776	157.876	207.439
156.761	-164.253	207.783	155.736	-192.963	207.989	124.200	129.857	207.615	120.766	157.899	207.426
156.731	-164.211	207.826	155.722	-192.935	207.977	124.192	129.872	207.657	120.793	157.907	207.436
156.689	-164.096	207.772	155.654	-192.792	208.020	124.191	129.901	207.684	120.756	157.942	207.467
156.596	-163.803	207.840	155.572	-192.519	208.047	124.199	129.916	207.696	120.764	157.957	207.479
156.487	-163.286	207.877	155.469	-191.997	208.015	124.216	129.932	207.693	120.800	157.959	207.475
156.317	-162.490	207.871	155.290	-191.224	207.997	124.244	129.896	207.705	120.803	157.914	207.503
156.044	-161.360	207.918	155.066	-190.093	207.931	124.263	129.868	207.676	120.828	157.909	207.459
155.662	-159.820	207.816	154.771	-188.564	207.969	124.244	129.867	207.651	120.828	157.901	207.459
155.183	-157.849	207.831	154.399	-186.571	207.961	124.209	129.865	207.655	120.777	157.876	207.466
154.766	-155.355	207.840	154.019	-184.127	207.913	124.238	129.837	207.666	120.770	157.853	207.508
154.377	-152.269	207.840	153.687	-181.021	207.893	124.213	129.799	207.657	120.778	157.854	207.467
154.011	-148.531	207.776	153.337	-177.260	207.911	124.184	129.834	207.618	120.759	157.862	207.414
153.742	-143.970	207.785	153.083	-172.715	207.920	124.175	129.834	207.632	120.784	157.877	207.424
153.522	-138.573	207.766	152.769	-167.327	207.951	124.219	129.851	207.668	120.775	157.899	207.438
153.175	-132.228	207.715	152.354	-160.973	207.949	124.211	129.872	207.709	120.775	157.906	207.438
152.704	-124.931	207.702	151.830	-153.633	207.901	124.215	129.917	207.666	120.790	157.951	207.462
152.121	-116.773	207.661	151.133	-145.499	207.859	124.224	129.925	207.678	120.782	157.957	207.504
151.441	-107.719	207.616	150.344	-136.454	207.800	124.217	129.917	207.694	120.792	157.944	207.462
150.910	-97.924	207.600	149.678	-126.612	207.744	124.226	129.918	207.707	120.783	157.958	207.504
150.587	-87.523	207.544	149.220	-116.234	207.688	124.224	129.918	207.652	120.807	157.944	207.460
150.317	-77.036	207.534	148.803	-105.709	207.691	124.207	129.909	207.681	120.799	157.937	207.447
150.057	-66.578	207.538	148.422	-95.267	207.668	124.244	129.889	207.677	120.810	157.907	207.461
149.808	-56.137	207.529	147.995	-84.804	207.702	124.237	129.851	207.666	120.802	157.907	207.476
149.474	-45.717	207.447	147.560	-74.422	207.617	124.202	129.842	207.670	120.760	157.882	207.495
149.245	-35.385	207.398	147.189	-64.027	207.566	124.175	129.834	207.605	120.723	157.882	207.417
148.958	-25.100	207.371	146.825	-53.749	207.546	124.178	129.804	207.661	120.743	157.845	207.444
148.751	-14.806	207.322	146.559	-43.448	207.473	124.187	129.805	207.673	120.744	157.831	207.444
148.489	-4.540	207.348	146.229	-33.195	207.436	124.210	129.843	207.628	120.777	157.854	207.439
148.257	5.662	207.277	145.911	-22.936	207.466	124.201	129.849	207.642	120.791	157.892	207.409
147.985	15.870	207.335	145.615	-12.769	207.443	124.235	129.888	207.692	120.819	157.900	207.474
147.728	25.976	207.298	145.350	-2.642	207.377	124.246	129.881	207.732	120.812	157.922	207.515
147.445	36.121	207.305	145.072	7.477	207.422	124.245	129.896	207.732	120.775	157.942	207.492
147.176	46.205	207.244	144.768	17.598	207.402	124.206	129.917	207.654	120.781	157.943	207.449
146.939	56.222	207.252	144.462	27.616	207.373	124.209	129.895	207.682	120.775	157.928	207.465
146.707	66.186	207.206	144.222	37.600	207.352	124.210	129.872	207.682	120.801	157.908	207.421
147.055	73.864	207.541	144.847	45.279	207.790	123.551	132.087	208.115	119.791	160.074	207.789
148.956	75.698	208.027	147.415	47.250	208.769	121.525	139.618	208.709	116.453	167.368	208.378
150.578	77.240	207.867	149.788	48.745	208.451	119.456	147.053	208.453	113.110	174.592	207.993
152.029	78.526	207.162	151.935	49.881	207.273	117.534	154.302	207.762	109.952	181.464	207.491
153.518	80.015	207.159	154.061	51.374	207.248	115.683	161.236	207.759	107.011	188.071	207.720
155.025	81.505	207.211	156.177	52.867	207.216	113.742	168.298	207.643	103.891	194.754	207.509
156.523	82.948	207.118	158.295	54.355	207.243	111.782	175.309	207.602	100.955	201.355	207.448
158.076	84.396	207.159	160.394	55.863	207.277	109.895	182.295	207.637	98.044	207.884	207.475
159.516	85.814	207.145	162.519	57.356	207.245	108.041	189.296	207.615	95.136	214.378	207.537
160.950	87.189	207.176	164.598	58.874	207.179	106.151	196.284	207.573	92.260	220.805	207.546
162.341	88.539	207.200	166.638	60.333	207.192	104.303	203.194	207.585	89.461	227.138	207.500
163.734	89.836	207.146	168.558	61.735	207.220	102.487	210.027	207.611	86.681	233.401	207.611
165.043	91.101	207.210	170.480	63.097	207.171	100.649	216.875	207.532	83.905	239.557	207.550
166.291	92.324	207.186	172.321	64.468	207.091	98.792	223.632	207.557	81.199	245.661	207.611
167.505	93.569	207.249	174.130	65.811	207.099	97.000	230.322	207.564	78.496	251.625	207.598
168.705	94.693	207.207	175.923	67.115	207.086	95.175	236.970	207.552	75.904	257.511	207.631
169.872	95.824	207.252	177.691	68.428	207.147	93.391	243.531	207.593	73.335	263.307	207.641
171.031	96.916	207.232	179.400	69.650	207.039	91.676	250.045	207.546	70.854	269.044	207.643
172.129	97.983	207.204	181.004	70.902	207.105	89.887	256.487	207.582	68.419	274.707	207.603
173.206	98.991	207.223	182.678	72.118	207.061	88.181	262.926	207.568	66.021	280.280	207.717
174.230	99.996	207.273	184.233	73.306	207.109	86.454	269.229	207.604	63.694	285.760	207.770
175.203	100.968	207.247	185.761	74.493	207.121	84.762	275.431	207.558	61.397	291.120	207.785
176.221	101.920	207.261	187.280	75.660	207.014	83.068	281.579	207.584	59.175	296.398	207.794
177.216	102.797	207.266	188.767	76.810	207.129	81.441	287.648	207.563	57.030	301.550	207.769
178.132	103.693	207.263	190.270	77.964	207.057	79.826	293.603	207.532	54.922	306.579	207.745
179.029	104.587	207.261	191.713	79.100	207.057	78.247	299.515	207.526	52.809	311.530	207.784
179.910	105.449	207.154	193.077	80.235	207.159	76.622	305.343	207.560	50.777	316.395	207.772
180.778	106.292	207.241	194.427	81.323	207.210	75.067	311.075	207.573	48.816	321.156	207.880
181.568	107.085	207.293	195.759	82.404	207.292	73.498	316.719	207.594	46.883	325.792	207.919
182.343	107.817	207.293	197.022	83.471	207.297	71.921	322.364	207.561	45.043	330.353	207.877
183.074	108.532	207.229	198.193	84.437	207.271	70.432	327.870	207.562	43.215	334.851	207.894
183.768	109.158	207.239	199.255	85.341	207.348	68.933	333.314	207.541	41.469	339.249	207.914
184.419	109.752	207.239	200.295	86.145	207.227	67.458	338.689	207.575	39.786	343.567	207.886
184.983	110.333	207.191	201.255	86.990	207.258	65.974	344.075	207.528	38.142	347.841	207.881
185.557	110.893	207.156	202.149	87.758	207.187	64.531	349.301	207.480	36.576	352.029	207.895
186.082	111.391	207.180	203.034	88.518	207.211	63.107	354.505	207.530	35.080	356.108	207.844
186.645	111.848	207.232	203.888	89.225	207.186	61.705	359.649	207.551	33.632	360.146	207.983
187.112	112.277	207.248	204.656	89.899	207.299	60.313	364.822	207.542	32.261	364.200	207.912
187.554	112.697	207.226	205.415	90.570	207.239	58.905	369.949	207.512	30.909	368.224	207.924
187.919	113.062	207.222	206.148	91.233	207.247	57.542	375.010	207.491	29.612	372.153	207.943
188.347	113.416	207.258	206.596	91.686	207.407	56.196	380.056	207.510	28.385	376.074	207.949
188.628	113.725	207.234	207.243	92.314	207.340	54.839	385.072	207.436	27.154	379.972	208.029
188.867	114.010	207.200	207.503	92.669	207.696	53.485	390.000	207.422	26.007	383.921	207.936
189.096	114.316	207.207	208.132	93.163	207.514	52.143	394.889	207.393	24.948	387.789	207.871
189.322	114.520	207.230	208.266	93.417	207.945	50.816	399.688	207.380	23.860	391.614	207.898
189.467	114.764	207.244	208.716	93.814	207.918	49.498	404.480	207.437	22.854	395.434	207.952
189.638	114.977	207.187	209.078	94.229	207.894	48.323	407.250	208.110	21.865	397.736	208.198
189.775	115.198	207.133	209.320	94.610	207.957	47.223	409.342	208.569	20.904	399.578	208.329
189.870	115.388	207.178	209.659	94.981	207.896	46.337	411.812	208.281	20.085	401.723	208.294
189.992	115.556	207.126	209.882	95.198	208.002	45.564	414.460	207.603	19.450	404.042	207.962
190.090	115.709	207.198	210.009	95.417	208.072	44.848	415.874	207.936	18.718	405.348	208.150
190.212	115.869	207.174	210.180	95.647	208.154	44.368	416.853	208.059	18.311	406.249	208.301
190.277	115.984	207.249	210.326	95.854	208.225	43.950	416.809	208.135	17.837	406.321	208.298
190.332	116.097	207.202	210.432	96.008	208.312	43.713	416.096	208.272	17.522	405.815	208.395
190.352	116.208	207.212	210.646	96.237	208.110	43.607	415.599	208.015	17.323	405.462	208.365
190.393	116.269	207.194	210.727	96.366	208.104	43.427	415.180	207.683	17.137	405.198	208.146
190.392	116.292	207.221	210.775	96.450	208.128	43.250	414.603	207.791	16.931	404.732	208.064
190.409	116.307	207.220	210.782	96.473	208.167	43.197	414.246	207.728	16.827	404.495	208.151
190.407	116.344	207.192	210.815	96.526	208.111	43.116	414.033	207.666	16.710	404.364	208.081
190.433	116.345	207.177	210.797	96.524	208.111	43.049	413.921	207.682	16.595	404.339	208.064
190.417	116.316	207.179	210.843	96.483	208.098	43.070	413.892	207.679	16.613	404.306	208.033
190.453	116.295	207.205	210.827	96.461	208.153	43.067	413.871	207.723	16.653	404.270	208.082
190.434	116.324	207.205	210.817	96.481	208.085	43.043	413.888	207.699	16.608	404.307	208.076
190.432	116.353	207.204	210.840	96.534	208.096	43.046	413.936	207.682	16.619	404.338	208.073
190.407	116.352	207.246	210.841	96.519	208.096	43.051	413.917	207.710	16.596	404.330	208.120
190.425	116.345	207.245	210.824	96.512	208.152	43.057	413.917	207.765	16.635	404.326	208.112
190.424	116.353	207.272	210.823	96.526	208.124	43.051	413.940	207.709	16.596	404.350	208.091
190.405	116.373	207.191	210.796	96.547	208.111	43.039	413.941	207.697	16.600	404.364	208.048
190.422	116.374	207.190	210.831	96.534	208.110	43.043	413.947	207.655	16.601	404.367	208.076
190.451	116.339	207.203	210.858	96.535	208.096	43.065	413.930	207.679	16.621	404.349	208.100
190.440	116.360	207.162	210.832	96.526	208.083	43.058	413.938	207.722	16.619	404.353	208.073
190.406	116.359	207.218	210.812	96.569	208.056	43.043	413.963	207.654	16.605	404.358	208.033
190.415	116.344	207.205	210.815	96.518	208.111	43.040	413.926	207.698	16.626	404.329	208.030
190.435	116.316	207.178	210.825	96.497	208.125	43.061	413.897	207.695	16.625	404.308	208.073
190.400	116.314	207.207	210.817	96.467	208.112	43.070	413.907	207.679	16.603	404.308	208.119
190.417	116.322	207.178	210.799	96.495	208.112	43.051	413.914	207.682	16.610	404.321	208.033
190.425	116.323	207.192	210.807	96.503	208.098	43.049	413.921	207.682	16.622	404.320	208.045
190.434	116.324	207.205	210.808	96.482	208.126	43.045	413.892	207.726	16.625	404.308	208.073
190.442	116.339	207.217	210.825	96.490	208.152	43.054	413.902	207.710	16.615	404.321	208.089
190.407	116.352	207.219	210.824	96.518	208.097	43.034	413.916	207.713	16.602	404.337	208.077
190.414	116.359	207.204	210.806	96.525	208.151	43.031	413.935	207.685	16.622	404.338	208.072
190.450	116.361	207.230	210.841	96.520	208.151	43.077	413.929	207.691	16.614	404.336	208.088
190.424	116.352	207.191	210.840	96.534	208.123	43.058	413.935	207.694	16.613	404.348	208.060
190.414	116.366	207.177	210.797	96.532	208.084	43.030	413.943	207.685	16.590	404.357	208.036
190.406	116.351	207.138	210.805	96.539	208.070	43.038	413.930	207.670	16.590	404.354	208.008
190.417	116.323	207.206	210.816	96.504	208.111	43.061	413.920	207.694	16.622	404.343	208.044
190.416	116.330	207.205	210.841	96.512	208.124	43.059	413.904	207.695	16.617	404.324	208.116
190.414	116.359	207.177	210.831	96.533	208.136	43.032	413.919	207.742	16.601	404.344	208.077
190.406	116.344	207.218	210.823	96.519	208.151	43.049	413.917	207.711	16.604	404.333	208.105
190.435	116.309	207.232	210.808	96.482	208.180	43.037	413.889	207.741	16.624	404.296	208.102
190.443	116.317	207.191	210.834	96.483	208.139	43.048	413.892	207.725	16.609	404.295	208.105
190.416	116.322	207.205	210.807	96.502	208.098	43.041	413.907	207.670	16.590	404.317	208.108
190.415	116.337	207.178	210.823	96.526	208.097	43.031	413.927	207.685	16.610	404.344	208.032
190.416	116.345	207.178	210.832	96.527	208.110	43.053	413.914	207.682	16.605	404.322	208.076
190.416	116.345	207.205	210.842	96.513	208.124	43.073	413.919	207.706	16.624	404.339	208.072
